 [Molden Format]
 [Atoms] AU
 C        1       6      20.291841      24.854618      22.676711
 C        2       6      22.959813      24.965336      22.676712
 C        3       6      24.324120      22.676712      22.676712
 C        4       6      22.959807      20.388089      22.676712
 C        5       6      20.291835      20.498816      22.676711
 N        6       7      18.945729      22.676717      22.676710
 H        7       1      19.165299      26.614708      22.676717
 H        8       1      23.933791      26.805499      22.676717
 H        9       1      26.407699      22.676702      22.676717
 H       10       1      23.933785      18.547928      22.676717
 H       11       1      19.165289      18.738726      22.676717
 [FREQ]
      355.940651
      392.294753
      582.333972
      632.845796
      690.622915
      730.495044
      862.100244
      918.089040
      963.034459
      970.683669
      982.728207
     1018.158215
     1046.295802
     1057.041420
     1119.657534
     1193.609172
     1309.620764
     1327.875369
     1417.301950
     1450.734844
     1586.476814
     1590.942752
     3085.193172
     3087.882474
     3108.771213
     3125.299704
     3135.248415
 [FR-COORD]
 C       20.291841      24.854618      22.676711
 C       22.959813      24.965336      22.676712
 C       24.324120      22.676712      22.676712
 C       22.959807      20.388089      22.676712
 C       20.291835      20.498816      22.676711
 N       18.945729      22.676717      22.676710
 H       19.165299      26.614708      22.676717
 H       23.933791      26.805499      22.676717
 H       26.407699      22.676702      22.676717
 H       23.933785      18.547928      22.676717
 H       19.165289      18.738726      22.676717
 [FR-NORM-COORD]
 vibration      1
    -0.000001      -0.000002       0.181318
     0.000000       0.000002      -0.184195
     0.000001      -0.000000       0.000000
    -0.000001      -0.000001       0.184195
    -0.000001       0.000001      -0.181319
     0.000001      -0.000000       0.000000
     0.000000      -0.000002       0.512997
    -0.000000       0.000003      -0.412348
     0.000001      -0.000000       0.000001
    -0.000002      -0.000000       0.412351
    -0.000001       0.000000      -0.512992
 vibration      2
     0.000000      -0.000000      -0.121538
    -0.000001      -0.000000      -0.160783
     0.000000       0.000001       0.269451
     0.000000      -0.000001      -0.160783
    -0.000001       0.000000      -0.121538
     0.000001       0.000000       0.280540
     0.000001      -0.000000      -0.231252
    -0.000000       0.000000      -0.304050
     0.000000       0.000001       0.689637
     0.000000      -0.000002      -0.304054
    -0.000000       0.000000      -0.231249
 vibration      3
     0.021557       0.208286      -0.000001
    -0.036372       0.239305      -0.000000
    -0.398930       0.000002      -0.000000
    -0.036378      -0.239300      -0.000001
     0.021551      -0.208291       0.000001
     0.395482      -0.000001      -0.000000
    -0.276414       0.021763       0.000006
     0.280721       0.071503       0.000004
    -0.397471      -0.000000       0.000001
     0.280720      -0.071497       0.000001
    -0.276417      -0.021769      -0.000001
 vibration      4
    -0.227603       0.229113       0.000002
    -0.239647      -0.238623      -0.000001
    -0.000005      -0.152628       0.000001
     0.239647      -0.238626       0.000001
     0.227605       0.229106       0.000000
     0.000002       0.135441      -0.000002
    -0.149575       0.280847       0.000006
    -0.043027      -0.341720      -0.000006
    -0.000003       0.285105      -0.000001
     0.043034      -0.341720      -0.000005
     0.149565       0.280847       0.000001
 vibration      5
    -0.000000      -0.000003       0.038853
    -0.000002       0.000001      -0.098508
     0.000002       0.000001       0.006032
    -0.000000      -0.000002      -0.098511
    -0.000002       0.000002       0.038855
     0.000003       0.000001      -0.059440
     0.000003      -0.000004       0.462519
    -0.000005       0.000001       0.352860
     0.000001       0.000002       0.545100
    -0.000003      -0.000002       0.352867
    -0.000004       0.000004       0.462515
 vibration      6
     0.000002       0.000001       0.162362
     0.000001      -0.000001      -0.089281
    -0.000002       0.000001       0.173264
    -0.000000       0.000002      -0.089278
     0.000000      -0.000002       0.162361
    -0.000001      -0.000000      -0.173884
     0.000001       0.000000       0.041272
     0.000002      -0.000000      -0.646237
    -0.000001      -0.000000      -0.180018
     0.000003       0.000002      -0.646254
     0.000000      -0.000003       0.041269
 vibration      7
     0.000000       0.000003       0.056228
     0.000001      -0.000001       0.088485
    -0.000002      -0.000001       0.000000
     0.000000       0.000002      -0.088490
     0.000002      -0.000002      -0.056220
    -0.000002      -0.000000      -0.000001
    -0.000002       0.000004      -0.346484
     0.000008      -0.000003      -0.607426
    -0.000002      -0.000003       0.000004
     0.000003       0.000005       0.607437
     0.000005      -0.000003       0.346441
 vibration      8
    -0.000002       0.000001       0.097963
     0.000001       0.000001      -0.026164
     0.000001      -0.000001      -0.086244
    -0.000001       0.000000      -0.026153
     0.000001       0.000000       0.097958
     0.000000      -0.000001      -0.021533
    -0.000005       0.000001      -0.579786
     0.000005      -0.000001       0.130073
     0.000000      -0.000003       0.515195
    -0.000002       0.000000       0.130014
     0.000001      -0.000001      -0.579773
 vibration      9
    -0.000004      -0.000002      -0.124127
    -0.000011      -0.000011       0.082239
     0.000010      -0.000000      -0.000001
    -0.000010       0.000011      -0.082242
    -0.000005       0.000002       0.124135
     0.000022      -0.000000      -0.000001
    -0.000007      -0.000006       0.602921
    -0.000030       0.000000      -0.338053
     0.000010       0.000002       0.000007
    -0.000027       0.000003       0.338061
    -0.000012       0.000005      -0.602973
 vibration     10
    -0.081690       0.033187       0.000024
    -0.210134      -0.309459      -0.000004
     0.152861       0.000001      -0.000017
    -0.210131       0.309458       0.000030
    -0.081689      -0.033188      -0.000031
     0.439301       0.000001      -0.000001
    -0.155756      -0.016662      -0.000112
    -0.400921      -0.220865      -0.000006
     0.141925       0.000004       0.000086
    -0.400926       0.220860      -0.000139
    -0.155762       0.016663       0.000158
 vibration     11
    -0.000004       0.000006       0.025701
    -0.000002      -0.000011      -0.083376
    -0.000002      -0.000004       0.118008
    -0.000008       0.000016      -0.083372
     0.000004      -0.000001       0.025701
     0.000009      -0.000003       0.007607
    -0.000009       0.000004      -0.202544
     0.000013      -0.000021       0.468892
    -0.000002      -0.000016      -0.670110
    -0.000008       0.000019       0.468868
     0.000017      -0.000010      -0.202543
 vibration     12
     0.199518      -0.266887      -0.000000
    -0.054235      -0.107643       0.000003
    -0.363180      -0.000005      -0.000005
    -0.054241       0.107650       0.000003
     0.199531       0.266892      -0.000000
     0.041443      -0.000004       0.000000
     0.436996      -0.137239       0.000003
    -0.098450      -0.113652      -0.000013
    -0.387802      -0.000025       0.000026
    -0.098484       0.113645      -0.000011
     0.437033       0.137228      -0.000002
 vibration     13
     0.101144      -0.056812       0.000003
    -0.067978      -0.066770      -0.000002
     0.000000       0.071775       0.000003
     0.067974      -0.066786      -0.000003
    -0.101139      -0.056783       0.000001
     0.000006       0.080844       0.000000
     0.389584       0.123350      -0.000024
    -0.397547       0.098131       0.000015
     0.000003       0.523382      -0.000028
     0.397487       0.098086       0.000023
    -0.389618       0.123407      -0.000013
 vibration     14
     0.007627      -0.084438       0.000005
    -0.021925       0.108698      -0.000002
     0.066191      -0.000002       0.000005
    -0.021935      -0.108690      -0.000003
     0.007642       0.084444      -0.000002
     0.056035      -0.000005       0.000000
    -0.117319      -0.165249      -0.000041
    -0.533701       0.384647       0.000011
     0.075364      -0.000016      -0.000039
    -0.533796      -0.384682       0.000013
    -0.117267       0.165228       0.000009
 vibration     15
    -0.009358       0.012585       0.000000
    -0.025537       0.015593      -0.000000
     0.000002      -0.058935      -0.000000
     0.025535       0.015588       0.000000
     0.009359       0.012586      -0.000000
     0.000001       0.013588      -0.000000
     0.051899       0.054255       0.000001
    -0.424070       0.227244      -0.000001
    -0.000000      -0.721024       0.000003
     0.424034       0.227221      -0.000002
    -0.051899       0.054257       0.000001
 vibration     16
     0.036665       0.093269      -0.000001
    -0.028936      -0.002592      -0.000000
    -0.010804      -0.000001      -0.000001
    -0.028936       0.002589       0.000001
     0.036660      -0.093271       0.000000
    -0.027263       0.000001      -0.000000
     0.476147       0.381689       0.000009
    -0.308081       0.145962       0.000001
    -0.012676       0.000034       0.000010
    -0.308058      -0.145953      -0.000001
     0.476131      -0.381681      -0.000002
 vibration     17
     0.006244       0.016946       0.000000
    -0.072170       0.040401       0.000000
     0.000001       0.022585       0.000000
     0.072168       0.040399       0.000000
    -0.006246       0.016948      -0.000000
     0.000001      -0.124971      -0.000000
     0.493515       0.327730      -0.000002
     0.278581      -0.144262      -0.000000
    -0.000000      -0.266110      -0.000002
    -0.278569      -0.144257       0.000000
    -0.493491       0.327716      -0.000000
 vibration     18
     0.221642       0.180524       0.000001
    -0.102045       0.077098      -0.000000
    -0.000002      -0.258421      -0.000000
     0.102049       0.077102       0.000001
    -0.221638       0.180523      -0.000001
    -0.000001      -0.251160      -0.000000
    -0.315638      -0.186796       0.000001
    -0.189606       0.127596       0.000000
     0.000001       0.548217       0.000004
     0.189587       0.127588      -0.000003
     0.315593      -0.186767       0.000003
 vibration     19
    -0.120916       0.047560      -0.000000
     0.167137      -0.005497       0.000000
     0.000002      -0.077556      -0.000000
    -0.167137      -0.005500       0.000000
     0.120912       0.047566      -0.000000
     0.000002      -0.124885      -0.000000
     0.259145       0.315087       0.000005
    -0.277504       0.250792      -0.000001
     0.000004       0.525345       0.000007
     0.277516       0.250796      -0.000006
    -0.259160       0.315101       0.000005
 vibration     20
    -0.097119      -0.119109       0.000001
    -0.079083       0.110086       0.000001
     0.095124      -0.000008       0.000002
    -0.079079      -0.110082      -0.000001
    -0.097122       0.119110      -0.000001
     0.088891       0.000003      -0.000000
     0.464559       0.241226      -0.000017
     0.391286      -0.123878      -0.000004
     0.118764       0.000007      -0.000017
     0.391295       0.123888      -0.000000
     0.464588      -0.241257       0.000005
 vibration     21
     0.098396       0.187823       0.000001
     0.102205      -0.241788      -0.000000
     0.000090       0.454142      -0.000000
    -0.102529      -0.241884       0.000000
    -0.098116       0.187750      -0.000000
    -0.000057      -0.237544       0.000000
    -0.241789      -0.043143      -0.000004
    -0.214508      -0.106505       0.000001
     0.000100      -0.523672      -0.000006
     0.214809      -0.106260       0.000005
     0.241616      -0.042887      -0.000004
 vibration     22
    -0.283094      -0.079128       0.000000
     0.317808      -0.091836       0.000001
    -0.176296       0.000204       0.000000
     0.317717       0.091618       0.000000
    -0.283183       0.079298      -0.000000
     0.118408      -0.000106       0.000000
     0.207244       0.273771      -0.000004
    -0.291486       0.241613      -0.000003
    -0.201775      -0.000234      -0.000002
    -0.291288      -0.241709      -0.000001
     0.207460      -0.273815      -0.000001
 vibration     23
    -0.034125       0.048084       0.000000
    -0.003431      -0.010979       0.000000
    -0.000017      -0.000060       0.000000
     0.003453      -0.011033       0.000000
     0.034241       0.048255      -0.000000
    -0.000002       0.000586       0.000000
     0.375299      -0.576578      -0.000002
     0.065677       0.130536       0.000000
     0.000211       0.000291      -0.000001
    -0.066007       0.131185      -0.000000
    -0.376586      -0.578557       0.000001
 vibration     24
     0.032027      -0.048041      -0.000000
     0.006974       0.017234       0.000000
    -0.011739      -0.000000      -0.000000
     0.006957      -0.017186       0.000000
     0.031908       0.047872      -0.000000
    -0.000617      -0.000001       0.000000
    -0.359100       0.553211       0.000002
    -0.103927      -0.204153      -0.000001
     0.145072      -0.000001       0.000001
    -0.103640       0.203589      -0.000001
    -0.357785      -0.551188       0.000001
 vibration     25
     0.011679      -0.016249      -0.000000
    -0.017543      -0.026975      -0.000000
     0.067117       0.000000       0.000000
    -0.017536       0.026964      -0.000000
     0.011672       0.016239      -0.000000
    -0.000170       0.000000       0.000000
    -0.118009       0.179615       0.000001
     0.180587       0.333442       0.000001
    -0.782832       0.000002      -0.000001
     0.180519      -0.333317       0.000001
    -0.117935      -0.179501       0.000000
 vibration     26
    -0.009860       0.010265       0.000000
     0.029275       0.053418       0.000000
     0.000034      -0.004732      -0.000000
    -0.029261       0.053387      -0.000000
     0.009850       0.010253      -0.000000
     0.000000      -0.000811       0.000000
     0.081432      -0.118972      -0.000000
    -0.323883      -0.608811      -0.000002
    -0.000374       0.005584       0.000000
     0.323715      -0.608489       0.000002
    -0.081338      -0.118832       0.000000
 vibration     27
     0.008688      -0.009084      -0.000000
    -0.021705      -0.045110      -0.000000
    -0.055184      -0.000002      -0.000000
    -0.021732       0.045159      -0.000000
     0.008696       0.009091      -0.000000
    -0.000156      -0.000000      -0.000000
    -0.069716       0.101052       0.000001
     0.255218       0.485672       0.000001
     0.598947       0.000000       0.000001
     0.255512      -0.486226       0.000001
    -0.069773      -0.101133       0.000000
